Hydrogen atom energy: -337.997
Hydrogen atom Dirac energy: -341.095
Hydrogen muonic atom energy: -69747
Hydrogen muonic atom Dirac energy: -70386.3
Ka: 1435.39 keV
1e-05 1.99998e-05 2.00059e-05 7.29961e-08
1.02e-05 2.03998e-05 2.0406e-05 7.4456e-08
1.0404e-05 2.08078e-05 2.08141e-05 7.5945e-08
1.06121e-05 2.12239e-05 2.12304e-05 7.74639e-08
1.08243e-05 2.16484e-05 2.1655e-05 7.90131e-08
1.10408e-05 2.20814e-05 2.20881e-05 8.05933e-08
1.12616e-05 2.2523e-05 2.25298e-05 8.22051e-08
1.14869e-05 2.29734e-05 2.29804e-05 8.38491e-08
1.17166e-05 2.34329e-05 2.344e-05 8.55261e-08
1.19509e-05 2.39016e-05 2.39088e-05 8.72365e-08
1.21899e-05 2.43796e-05 2.43869e-05 8.89812e-08
1.24337e-05 2.48672e-05 2.48746e-05 9.07607e-08
1.26824e-05 2.53645e-05 2.53721e-05 9.25759e-08
1.29361e-05 2.58718e-05 2.58795e-05 9.44273e-08
1.31948e-05 2.63892e-05 2.63971e-05 9.63158e-08
1.34587e-05 2.6917e-05 2.6925e-05 9.8242e-08
1.37279e-05 2.74553e-05 2.74635e-05 1.00207e-07
1.40024e-05 2.80044e-05 2.80128e-05 1.02211e-07
1.42825e-05 2.85645e-05 2.8573e-05 1.04255e-07
1.45681e-05 2.91358e-05 2.91444e-05 1.0634e-07
1.48595e-05 2.97185e-05 2.97273e-05 1.08467e-07
1.51567e-05 3.03129e-05 3.03218e-05 1.10636e-07
1.54598e-05 3.09191e-05 3.09282e-05 1.12849e-07
1.5769e-05 3.15375e-05 3.15468e-05 1.15105e-07
1.60844e-05 3.21682e-05 3.21777e-05 1.17407e-07
1.64061e-05 3.28116e-05 3.28212e-05 1.19755e-07
1.67342e-05 3.34678e-05 3.34776e-05 1.22151e-07
1.70689e-05 3.41371e-05 3.41471e-05 1.24593e-07
1.74102e-05 3.48199e-05 3.483e-05 1.27085e-07
1.77584e-05 3.55163e-05 3.55266e-05 1.29627e-07
1.81136e-05 3.62266e-05 3.62371e-05 1.32219e-07
1.84759e-05 3.69511e-05 3.69618e-05 1.34863e-07
1.88454e-05 3.76901e-05 3.7701e-05 1.37561e-07
1.92223e-05 3.84439e-05 3.8455e-05 1.40312e-07
1.96068e-05 3.92128e-05 3.9224e-05 1.43118e-07
1.99989e-05 3.9997e-05 4.00085e-05 1.4598e-07
2.03989e-05 4.07969e-05 4.08086e-05 1.48899e-07
2.08069e-05 4.16128e-05 4.16248e-05 1.51877e-07
2.1223e-05 4.24451e-05 4.24572e-05 1.54915e-07
2.16474e-05 4.3294e-05 4.33063e-05 1.58013e-07
2.20804e-05 4.41598e-05 4.41724e-05 1.61173e-07
2.2522e-05 4.5043e-05 4.50558e-05 1.64396e-07
2.29724e-05 4.59438e-05 4.59569e-05 1.67684e-07
2.34319e-05 4.68627e-05 4.6876e-05 1.71038e-07
2.39005e-05 4.77999e-05 4.78134e-05 1.74458e-07
2.43785e-05 4.87559e-05 4.87697e-05 1.77947e-07
2.48661e-05 4.9731e-05 4.9745e-05 1.81506e-07
2.53634e-05 5.07256e-05 5.07399e-05 1.85136e-07
2.58707e-05 5.17401e-05 5.17546e-05 1.88838e-07
2.63881e-05 5.27748e-05 5.27896e-05 1.92615e-07
2.69159e-05 5.38303e-05 5.38454e-05 1.96467e-07
2.74542e-05 5.49069e-05 5.49222e-05 2.00396e-07
2.80033e-05 5.6005e-05 5.60206e-05 2.04404e-07
2.85633e-05 5.71251e-05 5.71409e-05 2.08492e-07
2.91346e-05 5.82675e-05 5.82837e-05 2.12661e-07
2.97173e-05 5.94328e-05 5.94493e-05 2.16914e-07
3.03117e-05 6.06215e-05 6.06382e-05 2.21252e-07
3.09179e-05 6.18339e-05 6.18509e-05 2.25677e-07
3.15362e-05 6.30705e-05 6.30879e-05 2.3019e-07
3.2167e-05 6.43319e-05 6.43496e-05 2.34794e-07
3.28103e-05 6.56185e-05 6.56365e-05 2.39489e-07
3.34665e-05 6.69308e-05 6.69491e-05 2.44279e-07
3.41358e-05 6.82694e-05 6.8288e-05 2.49164e-07
3.48186e-05 6.96347e-05 6.96537e-05 2.54147e-07
3.55149e-05 7.10273e-05 7.10467e-05 2.5923e-07
3.62252e-05 7.24478e-05 7.24675e-05 2.64414e-07
3.69497e-05 7.38967e-05 7.39168e-05 2.69702e-07
3.76887e-05 7.53746e-05 7.5395e-05 2.75096e-07
3.84425e-05 7.68821e-05 7.69028e-05 2.80597e-07
3.92114e-05 7.84196e-05 7.84408e-05 2.86209e-07
3.99956e-05 7.9988e-05 8.00095e-05 2.91933e-07
4.07955e-05 8.15877e-05 8.16096e-05 2.97771e-07
4.16114e-05 8.32193e-05 8.32417e-05 3.03726e-07
4.24436e-05 8.48837e-05 8.49064e-05 3.098e-07
4.32925e-05 8.65813e-05 8.66044e-05 3.15996e-07
4.41584e-05 8.83128e-05 8.83363e-05 3.22315e-07
4.50415e-05 9.0079e-05 9.01029e-05 3.28761e-07
4.59424e-05 9.18805e-05 9.19049e-05 3.35336e-07
4.68612e-05 9.3718e-05 9.37428e-05 3.42042e-07
4.77984e-05 9.55923e-05 9.56175e-05 3.48882e-07
4.87544e-05 9.7504e-05 9.75298e-05 3.55859e-07
4.97295e-05 9.9454e-05 9.94802e-05 3.62976e-07
5.07241e-05 0.000101443 0.00010147 3.70235e-07
5.17386e-05 0.000103472 0.000103499 3.77639e-07
5.27733e-05 0.000105541 0.000105569 3.85191e-07
5.38288e-05 0.000107652 0.00010768 3.92894e-07
5.49054e-05 0.000109805 0.000109833 4.00752e-07
5.60035e-05 0.000112001 0.00011203 4.08766e-07
5.71235e-05 0.000114241 0.00011427 4.16941e-07
5.8266e-05 0.000116525 0.000116555 4.25279e-07
5.94313e-05 0.000118856 0.000118886 4.33784e-07
6.062e-05 0.000121233 0.000121264 4.42458e-07
6.18324e-05 0.000123657 0.000123689 4.51307e-07
6.3069e-05 0.00012613 0.000126162 4.60332e-07
6.43304e-05 0.000128652 0.000128685 4.69538e-07
6.5617e-05 0.000131225 0.000131259 4.78928e-07
6.69293e-05 0.00013385 0.000133884 4.88505e-07
6.82679e-05 0.000136527 0.000136561 4.98275e-07
6.96333e-05 0.000139257 0.000139292 5.08239e-07
7.10259e-05 0.000142042 0.000142078 5.18403e-07
7.24465e-05 0.000144882 0.000144919 5.2877e-07
7.38954e-05 0.00014778 0.000147817 5.39344e-07
7.53733e-05 0.000150735 0.000150773 5.5013e-07
7.68808e-05 0.00015375 0.000153788 5.61132e-07
7.84184e-05 0.000156824 0.000156864 5.72353e-07
7.99867e-05 0.000159961 0.000160001 5.83799e-07
8.15865e-05 0.00016316 0.0001632 5.95474e-07
8.32182e-05 0.000166423 0.000166464 6.07382e-07
8.48826e-05 0.000169751 0.000169793 6.19528e-07
8.65802e-05 0.000173145 0.000173189 6.31917e-07
8.83118e-05 0.000176608 0.000176652 6.44554e-07
9.00781e-05 0.00018014 0.000180184 6.57444e-07
9.18796e-05 0.000183742 0.000183788 6.70591e-07
9.37172e-05 0.000187417 0.000187463 6.84001e-07
9.55916e-05 0.000191165 0.000191212 6.9768e-07
9.75034e-05 0.000194988 0.000195036 7.11631e-07
9.94535e-05 0.000198887 0.000198936 7.25862e-07
0.000101443 0.000202864 0.000202914 7.40378e-07
0.000103471 0.000206921 0.000206972 7.55183e-07
0.000105541 0.000211059 0.000211111 7.70285e-07
0.000107652 0.00021528 0.000215332 7.85688e-07
0.000109805 0.000219585 0.000219638 8.014e-07
0.000112001 0.000223976 0.000224031 8.17426e-07
0.000114241 0.000228455 0.000228511 8.33772e-07
0.000116526 0.000233024 0.00023308 8.50445e-07
0.000118856 0.000237684 0.000237741 8.67452e-07
0.000121233 0.000242437 0.000242495 8.84798e-07
0.000123658 0.000247285 0.000247344 9.02491e-07
0.000126131 0.00025223 0.00025229 9.20538e-07
0.000128654 0.000257274 0.000257335 9.38946e-07
0.000131227 0.000262419 0.000262481 9.57722e-07
0.000133851 0.000267667 0.00026773 9.76874e-07
0.000136528 0.000273019 0.000273084 9.96408e-07
0.000139259 0.000278479 0.000278545 1.01633e-06
0.000142044 0.000284048 0.000284115 1.03666e-06
0.000144885 0.000289728 0.000289796 1.05739e-06
0.000147783 0.000295522 0.000295591 1.07853e-06
0.000150738 0.000301431 0.000301502 1.1001e-06
0.000153753 0.000307459 0.000307531 1.12209e-06
0.000156828 0.000313607 0.00031368 1.14453e-06
0.000159965 0.000319878 0.000319952 1.16742e-06
0.000163164 0.000326275 0.00032635 1.19076e-06
0.000166427 0.000332799 0.000332876 1.21457e-06
0.000169756 0.000339454 0.000339532 1.23886e-06
0.000173151 0.000346242 0.000346321 1.26363e-06
0.000176614 0.000353165 0.000353247 1.2889e-06
0.000180146 0.000360227 0.00036031 1.31467e-06
0.000183749 0.000367431 0.000367515 1.34096e-06
0.000187424 0.000374778 0.000374863 1.36777e-06
0.000191173 0.000382272 0.000382359 1.39512e-06
0.000194996 0.000389916 0.000390005 1.42302e-06
0.000198896 0.000397713 0.000397803 1.45147e-06
0.000202874 0.000405665 0.000405757 1.4805e-06
0.000206931 0.000413777 0.00041387 1.5101e-06
0.00021107 0.000422051 0.000422146 1.54029e-06
0.000215291 0.00043049 0.000430587 1.57109e-06
0.000219597 0.000439098 0.000439196 1.60251e-06
0.000223989 0.000447878 0.000447978 1.63455e-06
0.000228469 0.000456833 0.000456935 1.66723e-06
0.000233038 0.000465968 0.000466072 1.70057e-06
0.000237699 0.000475285 0.000475391 1.73457e-06
0.000242453 0.000484789 0.000484896 1.76925e-06
0.000247302 0.000494482 0.000494591 1.80463e-06
0.000252248 0.000504369 0.00050448 1.84071e-06
0.000257293 0.000514454 0.000514567 1.87751e-06
0.000262439 0.00052474 0.000524855 1.91505e-06
0.000267688 0.000535232 0.000535349 1.95334e-06
0.000273042 0.000545934 0.000546053 1.9924e-06
0.000278502 0.00055685 0.000556971 2.03223e-06
0.000284072 0.000567983 0.000568107 2.07286e-06
0.000289754 0.00057934 0.000579465 2.11431e-06
0.000295549 0.000590923 0.000591051 2.15658e-06
0.00030146 0.000602738 0.000602868 2.1997e-06
0.000307489 0.000614789 0.000614921 2.24368e-06
0.000313639 0.000627081 0.000627215 2.28854e-06
0.000319912 0.000639619 0.000639755 2.33429e-06
0.00032631 0.000652407 0.000652546 2.38096e-06
0.000332836 0.000665451 0.000665592 2.42856e-06
0.000339493 0.000678755 0.000678899 2.47712e-06
0.000346283 0.000692326 0.000692472 2.52664e-06
0.000353208 0.000706167 0.000706316 2.57715e-06
0.000360272 0.000720285 0.000720437 2.62868e-06
0.000367478 0.000734686 0.00073484 2.68123e-06
0.000374827 0.000749374 0.000749531 2.73483e-06
0.000382324 0.000764356 0.000764516 2.78951e-06
0.000389971 0.000779637 0.000779799 2.84527e-06
0.00039777 0.000795223 0.000795389 2.90216e-06
0.000405725 0.000811121 0.00081129 2.96017e-06
0.00041384 0.000827337 0.000827508 3.01935e-06
0.000422117 0.000843877 0.000844051 3.07971e-06
0.000430559 0.000860747 0.000860924 3.14128e-06
0.00043917 0.000877955 0.000878135 3.20407e-06
0.000447954 0.000895506 0.000895689 3.26812e-06
0.000456913 0.000913408 0.000913594 3.33345e-06
0.000466051 0.000931667 0.000931857 3.40009e-06
0.000475372 0.000950292 0.000950485 3.46806e-06
0.000484879 0.000969289 0.000969485 3.53738e-06
0.000494577 0.000988665 0.000988865 3.60809e-06
0.000504468 0.00100843 0.00100863 3.68022e-06
0.000514558 0.00102859 0.00102879 3.75378e-06
0.000524849 0.00104915 0.00104936 3.82882e-06
0.000535346 0.00107012 0.00107033 3.90535e-06
0.000546053 0.00109151 0.00109173 3.98341e-06
0.000556974 0.00111333 0.00111355 4.06303e-06
0.000568113 0.00113558 0.00113581 4.14425e-06
0.000579476 0.00115828 0.00115851 4.22708e-06
0.000591065 0.00118143 0.00118167 4.31157e-06
0.000602886 0.00120505 0.00120528 4.39775e-06
0.000614944 0.00122913 0.00122937 4.48565e-06
0.000627243 0.0012537 0.00125395 4.5753e-06
0.000639788 0.00127876 0.00127901 4.66675e-06
0.000652584 0.00130432 0.00130457 4.76002e-06
0.000665635 0.00133038 0.00133064 4.85515e-06
0.000678948 0.00135697 0.00135724 4.95219e-06
0.000692527 0.0013841 0.00138436 5.05116e-06
0.000706378 0.00141176 0.00141203 5.15211e-06
0.000720505 0.00143997 0.00144025 5.25507e-06
0.000734915 0.00146875 0.00146903 5.36009e-06
0.000749614 0.0014981 0.00149839 5.46721e-06
0.000764606 0.00152804 0.00152833 5.57647e-06
0.000779898 0.00155858 0.00155888 5.68791e-06
0.000795496 0.00158973 0.00159003 5.80157e-06
0.000811406 0.0016215 0.0016218 5.91751e-06
0.000827634 0.0016539 0.00165421 6.03576e-06
0.000844187 0.00168695 0.00168727 6.15637e-06
0.00086107 0.00172066 0.00172098 6.27939e-06
0.000878292 0.00175504 0.00175537 6.40486e-06
0.000895858 0.00179011 0.00179044 6.53284e-06
0.000913775 0.00182588 0.00182622 6.66337e-06
0.00093205 0.00186236 0.00186271 6.79651e-06
0.000950691 0.00189958 0.00189993 6.93231e-06
0.000969705 0.00193753 0.00193789 7.07082e-06
0.000989099 0.00197624 0.00197661 7.21209e-06
0.00100888 0.00201573 0.0020161 7.35618e-06
0.00102906 0.002056 0.00205638 7.50315e-06
0.00104964 0.00209708 0.00209746 7.65305e-06
0.00107063 0.00213897 0.00213936 7.80595e-06
0.00109205 0.00218171 0.0021821 7.96189e-06
0.00111389 0.00222529 0.00222569 8.12095e-06
0.00113616 0.00226975 0.00227016 8.28318e-06
0.00115889 0.00231509 0.00231551 8.44864e-06
0.00118207 0.00236134 0.00236176 8.61741e-06
0.00120571 0.00240851 0.00240894 8.78955e-06
0.00122982 0.00245662 0.00245706 8.96512e-06
0.00125442 0.00250569 0.00250613 9.14419e-06
0.00127951 0.00255574 0.00255619 9.32684e-06
0.0013051 0.00260679 0.00260725 9.51312e-06
0.0013312 0.00265885 0.00265932 9.70313e-06
0.00135782 0.00271196 0.00271243 9.89692e-06
0.00138498 0.00276612 0.0027666 1.00946e-05
0.00141268 0.00282137 0.00282186 1.02962e-05
0.00144093 0.00287771 0.00287821 1.05018e-05
0.00146975 0.00293518 0.00293569 1.07115e-05
0.00149914 0.0029938 0.00299431 1.09254e-05
0.00152913 0.00305358 0.00305411 1.11436e-05
0.00155971 0.00311456 0.00311509 1.13661e-05
0.0015909 0.00317675 0.00317729 1.15931e-05
0.00162272 0.00324018 0.00324073 1.18245e-05
0.00165518 0.00330488 0.00330544 1.20606e-05
0.00168828 0.00337086 0.00337144 1.23014e-05
0.00172205 0.00343817 0.00343875 1.2547e-05
0.00175649 0.00350681 0.0035074 1.27975e-05
0.00179162 0.00357682 0.00357742 1.3053e-05
0.00182745 0.00364822 0.00364883 1.33136e-05
0.001864 0.00372105 0.00372167 1.35794e-05
0.00190128 0.00379533 0.00379596 1.38504e-05
0.0019393 0.00387109 0.00387173 1.41269e-05
0.00197809 0.00394836 0.00394901 1.44089e-05
0.00201765 0.00402717 0.00402783 1.46964e-05
0.002058 0.00410755 0.00410822 1.49898e-05
0.00209916 0.00418952 0.00419021 1.52889e-05
0.00214115 0.00427314 0.00427383 1.5594e-05
0.00218397 0.00435841 0.00435912 1.59052e-05
0.00222765 0.00444539 0.00444611 1.62226e-05
0.0022722 0.00453409 0.00453482 1.65463e-05
0.00231765 0.00462456 0.00462531 1.68765e-05
0.002364 0.00471684 0.00471759 1.72132e-05
0.00241128 0.00481094 0.00481171 1.75566e-05
0.00245951 0.00490693 0.00490771 1.79069e-05
0.0025087 0.00500482 0.00500561 1.82641e-05
0.00255887 0.00510466 0.00510547 1.86284e-05
0.00261005 0.00520649 0.00520731 1.9e-05
0.00266225 0.00531034 0.00531117 1.9379e-05
0.00271549 0.00541626 0.00541711 1.97655e-05
0.0027698 0.00552428 0.00552515 2.01597e-05
0.0028252 0.00563446 0.00563533 2.05618e-05
0.0028817 0.00574682 0.00574771 2.09718e-05
0.00293934 0.00586142 0.00586233 2.139e-05
0.00299812 0.0059783 0.00597922 2.18165e-05
0.00305809 0.0060975 0.00609843 2.22515e-05
0.00311925 0.00621907 0.00622002 2.26951e-05
0.00318163 0.00634305 0.00634402 2.31476e-05
0.00324526 0.0064695 0.00647048 2.3609e-05
0.00331017 0.00659846 0.00659946 2.40796e-05
0.00337637 0.00672999 0.006731 2.45596e-05
0.0034439 0.00686412 0.00686515 2.50491e-05
0.00351278 0.00700092 0.00700197 2.55483e-05
0.00358303 0.00714044 0.00714151 2.60574e-05
0.0036547 0.00728273 0.00728381 2.65766e-05
0.00372779 0.00742784 0.00742894 2.71062e-05
0.00380235 0.00757583 0.00757695 2.76462e-05
0.00387839 0.00772676 0.0077279 2.8197e-05
0.00395596 0.00788068 0.00788184 2.87587e-05
0.00403508 0.00803766 0.00803884 2.93315e-05
0.00411578 0.00819775 0.00819895 2.99157e-05
0.0041981 0.00836102 0.00836223 3.05115e-05
0.00428206 0.00852752 0.00852876 3.11191e-05
0.0043677 0.00869733 0.00869858 3.17387e-05
0.00445505 0.0088705 0.00887177 3.23707e-05
0.00454415 0.0090471 0.0090484 3.30151e-05
0.00463504 0.00922721 0.00922852 3.36723e-05
0.00472774 0.00941088 0.00941222 3.43426e-05
0.00482229 0.00959819 0.00959955 3.50261e-05
0.00491874 0.00978921 0.00979059 3.57232e-05
0.00501711 0.00998401 0.00998541 3.6434e-05
0.00511746 0.0101827 0.0101841 3.7159e-05
0.0052198 0.0103853 0.0103867 3.78982e-05
0.0053242 0.0105919 0.0105933 3.86521e-05
0.00543069 0.0108025 0.010804 3.9421e-05
0.0055393 0.0110174 0.0110189 4.0205e-05
0.00565008 0.0112365 0.011238 4.10045e-05
0.00576309 0.0114599 0.0114615 4.18199e-05
0.00587835 0.0116878 0.0116894 4.26513e-05
0.00599592 0.0119201 0.0119218 4.34992e-05
0.00611583 0.0121571 0.0121587 4.43639e-05
0.00623815 0.0123987 0.0124004 4.52456e-05
0.00636291 0.0126451 0.0126468 4.61447e-05
0.00649017 0.0128964 0.0128981 4.70616e-05
0.00661997 0.0131526 0.0131543 4.79966e-05
0.00675237 0.0134139 0.0134156 4.895e-05
0.00688742 0.0136803 0.0136821 4.99222e-05
0.00702517 0.013952 0.0139538 5.09136e-05
0.00716567 0.014229 0.0142309 5.19246e-05
0.00730899 0.0145115 0.0145134 5.29555e-05
0.00745517 0.0147996 0.0148015 5.40066e-05
0.00760427 0.0150933 0.0150953 5.50785e-05
0.00775636 0.0153929 0.0153948 5.61715e-05
0.00791148 0.0156983 0.0157003 5.7286e-05
0.00806971 0.0160097 0.0160118 5.84225e-05
0.00823111 0.0163273 0.0163293 5.95813e-05
0.00839573 0.0166511 0.0166532 6.07629e-05
0.00856364 0.0169812 0.0169834 6.19677e-05
0.00873492 0.0173179 0.0173201 6.31962e-05
0.00890961 0.0176612 0.0176634 6.44488e-05
0.00908781 0.0180112 0.0180134 6.57261e-05
0.00926956 0.0183681 0.0183703 6.70284e-05
0.00945495 0.018732 0.0187343 6.83562e-05
0.00964405 0.019103 0.0191053 6.97101e-05
0.00983693 0.0194813 0.0194837 7.10906e-05
0.0100337 0.019867 0.0198694 7.24981e-05
0.0102343 0.0202603 0.0202627 7.39332e-05
0.010439 0.0206613 0.0206638 7.53963e-05
0.0106478 0.0210701 0.0210726 7.68882e-05
0.0108608 0.0214869 0.0214895 7.84092e-05
0.011078 0.0219119 0.0219145 7.996e-05
0.0112995 0.0223452 0.0223478 8.15411e-05
0.0115255 0.0227869 0.0227896 8.3153e-05
0.011756 0.0232373 0.02324 8.47965e-05
0.0119912 0.0236965 0.0236993 8.64721e-05
0.012231 0.0241646 0.0241674 8.81803e-05
0.0124756 0.0246419 0.0246447 8.99219e-05
0.0127251 0.0251284 0.0251313 9.16974e-05
0.0129796 0.0256245 0.0256274 9.35075e-05
0.0132392 0.0261302 0.0261332 9.53528e-05
0.013504 0.0266457 0.0266488 9.72341e-05
0.0137741 0.0271713 0.0271744 9.91519e-05
0.0140496 0.0277071 0.0277102 0.000101107
0.0143306 0.0282533 0.0282565 0.0001031
0.0146172 0.0288101 0.0288133 0.000105132
0.0149095 0.0293777 0.029381 0.000107203
0.0152077 0.0299564 0.0299597 0.000109315
0.0155119 0.0305462 0.0305496 0.000111467
0.0158221 0.0311474 0.0311509 0.000113661
0.0161385 0.0317603 0.0317638 0.000115897
0.0164613 0.0323851 0.0323886 0.000118177
0.0167905 0.0330219 0.0330255 0.000120501
0.0171263 0.0336711 0.0336747 0.00012287
0.0174689 0.0343327 0.0343364 0.000125284
0.0178182 0.0350071 0.0350109 0.000127745
0.0181746 0.0356946 0.0356983 0.000130253
0.0185381 0.0363952 0.0363991 0.00013281
0.0189089 0.0371094 0.0371133 0.000135416
0.019287 0.0378372 0.0378412 0.000138072
0.0196728 0.0385791 0.0385831 0.000140779
0.0200662 0.0393352 0.0393393 0.000143538
0.0204676 0.0401058 0.0401099 0.00014635
0.0208769 0.0408912 0.0408954 0.000149216
0.0212945 0.0416916 0.0416958 0.000152137
0.0217203 0.0425073 0.0425116 0.000155113
0.0221547 0.0433386 0.043343 0.000158147
0.0225978 0.0441858 0.0441902 0.000161238
0.0230498 0.0450492 0.0450537 0.000164388
0.0235108 0.045929 0.0459335 0.000167599
0.023981 0.0468255 0.0468302 0.00017087
0.0244606 0.0477391 0.0477438 0.000174204
0.0249498 0.0486701 0.0486749 0.000177601
0.0254488 0.0496187 0.0496236 0.000181063
0.0259578 0.0505854 0.0505903 0.00018459
0.026477 0.0515703 0.0515752 0.000188184
0.0270065 0.0525738 0.0525789 0.000191846
0.0275466 0.0535964 0.0536015 0.000195577
0.0280976 0.0546382 0.0546434 0.000199379
0.0286595 0.0556996 0.0557049 0.000203252
0.0292327 0.0567811 0.0567864 0.000207198
0.0298174 0.0578828 0.0578882 0.000211218
0.0304137 0.0590053 0.0590108 0.000215314
0.031022 0.0601488 0.0601543 0.000219487
0.0316424 0.0613137 0.0613193 0.000223737
0.0322753 0.0625004 0.0625061 0.000228068
0.0329208 0.0637093 0.0637151 0.000232479
0.0335792 0.0649407 0.0649466 0.000236972
0.0342508 0.0661951 0.066201 0.000241549
0.0349358 0.0674727 0.0674787 0.000246211
0.0356345 0.0687741 0.0687802 0.00025096
0.0363472 0.0700996 0.0701058 0.000255797
0.0370742 0.0714497 0.0714559 0.000260723
0.0378156 0.0728246 0.0728309 0.00026574
0.038572 0.074225 0.0742314 0.00027085
0.0393434 0.0756511 0.0756576 0.000276054
0.0401303 0.0771034 0.07711 0.000281353
0.0409329 0.0785824 0.078589 0.00028675
0.0417515 0.0800884 0.0800952 0.000292245
0.0425866 0.081622 0.0816288 0.000297841
0.0434383 0.0831836 0.0831905 0.000303539
0.044307 0.0847736 0.0847806 0.000309341
0.0451932 0.0863925 0.0863995 0.000315248
0.0460971 0.0880407 0.0880479 0.000321262
0.047019 0.0897188 0.089726 0.000327386
0.0479594 0.0914271 0.0914345 0.000333619
0.0489186 0.0931663 0.0931737 0.000339965
0.0498969 0.0949366 0.0949442 0.000346425
0.0508949 0.0967388 0.0967464 0.000353001
0.0519128 0.0985732 0.0985809 0.000359695
0.052951 0.10044 0.100448 0.000366508
0.05401 0.102341 0.102349 0.000373442
0.0550902 0.104275 0.104283 0.000380499
0.0561921 0.106243 0.106251 0.000387682
0.0573159 0.108246 0.108254 0.000394991
0.0584622 0.110285 0.110293 0.000402429
